<?xml version="1.0" encoding="UTF-8"?>
<xrdMeasurements xmlns="http://www.xrdml.com/XRDMeasurement/1.6" xmlns:xsi="http://www.w3.org/2001/XMLSchema-instance" xsi:schemaLocation="http://www.xrdml.com/XRDMeasurement/1.6 http://www.xrdml.com/XRDMeasurement/1.6/XRDMeasurement.xsd" status="Aborted">
	<comment>
		<entry>Configuration=Chi-Phi-z stage, Owner=User-1, Creation date=2016/4/21 11:38:47</entry>
		<entry>Goniometer=Theta/Theta; Minimum step size 2Theta:0.0001; Minimum step size Omega:0.0001</entry>
		<entry>Sample stage=Chi-Phi-z stage 240 mm (reflection); Minimum step size Phi:0.01; Minimum step size Chi:0.01; Minimum step size Z:0.001</entry>
		<entry>Diffractometer system=EMPYREAN</entry>
		<entry>Measurement program=C:\PANalytical\Data Collector\Programs\Tony Zhu\XRR 1.xrdmp, Identifier={004D6FE0-4B10-4303-AD3A-861216BCB857}</entry>
		<entry>Batch program=C:\PANalytical\Data Collector\Programs\Tony Zhu\Batch_XRR 1.xrdmp, Identifier={34C6E2F6-ACBD-4865-9C09-98417DE26B42}</entry>
	</comment>
	<sample type="To be analyzed">
		<id>Co-C(260917A)</id>
		<name></name>
		<preparedBy>User-1</preparedBy>
	</sample>
	<xrdMeasurement measurementType="Scan" status="Aborted" sampleMode="Reflection">
		<comment>
			<entry>PHD Lower Level = 4.02 (keV), PHD Upper Level = 16.08 (keV)</entry>
		</comment>
		<usedWavelength intended="K-Alpha">
			<kAlpha1 unit="Angstrom">1.5405980</kAlpha1>
			<kAlpha2 unit="Angstrom">1.5444260</kAlpha2>
			<kBeta unit="Angstrom">1.3922500</kBeta>
			<ratioKAlpha2KAlpha1>0.5000</ratioKAlpha2KAlpha1>
		</usedWavelength>
		<incidentBeamPath>
			<radius unit="mm">240.00</radius>
			<xRayTube id="1010048" name="Empyrean Cu LFF HR (9430 033 7310x) DK417079">
				<tension unit="kV">40.0</tension>
				<current unit="mA">20.0</current>
				<anodeMaterial>Cu</anodeMaterial>
				<focus type="Line">
					<length unit="mm">12.0</length>
					<width unit="mm">0.4</width>
					<takeOffAngle unit="deg">4.4</takeOffAngle>
				</focus>
			</xRayTube>
			<xRayMirror id="27020001" name="Inc. Parallel beam X-ray mirror for Cu radiation" hybrid="false">
				<crystal type="Graded" shape="Parabolic">W/Si</crystal>
				<acceptanceAngle unit="deg">0.800</acceptanceAngle>
				<length unit="mm">55.3</length>
			</xRayMirror>
			<sollerSlit id="21010002" name="Soller slits 0.04 rad.">
				<opening unit="rad">0.0400</opening>
			</sollerSlit>
			<divergenceSlit id="22010011" name="Fixed slit 1/32°" xsi:type="fixedDivergenceSlitType">
				<distanceToSample unit="mm">140.00</distanceToSample>
				<height unit="mm">0.05</height>
			</divergenceSlit>
		</incidentBeamPath>
		<sampleOffset>
			<position axis="2Theta" unit="deg">0.0029</position>
			<position axis="Omega" unit="deg">-0.1651</position>
		</sampleOffset>
		<diffractedBeamPath>
			<radius unit="mm">240.00</radius>
			<sollerSlit id="21010002" name="Soller slits 0.04 rad.">
				<opening unit="rad">0.0400</opening>
			</sollerSlit>
			<detector id="7010020" name="PIXcel3D-Medipix3 1x1 detector" xsi:type="areaDetectorType">
				<phd>
					<lowerLevel unit="%">25.0</lowerLevel>
					<upperLevel unit="%">100.0</upperLevel>
				</phd>
				<mode>Receiving slit</mode>
				<activeChannelsEquatorial>1</activeChannelsEquatorial>
				<activeChannelsAxial>255</activeChannelsAxial>
				<pitchEquatorial unit="mm">0.05500</pitchEquatorial>
				<pitchAxial unit="mm">0.05500</pitchAxial>
				<readOutPeriod unit="seconds">0.050</readOutPeriod>
			</detector>
		</diffractedBeamPath>
		<scan appendNumber="0" mode="Continuous" scanAxis="2Theta-Omega" status="Aborted">
			<header>
				<startTimeStamp>2026-09-18T12:43:25+08:00</startTimeStamp>
				<endTimeStamp>2026-09-18T12:58:56+08:00</endTimeStamp>
				<author>
					<name>admin</name>
				</author>
				<source>
					<applicationSoftware version="5.3">Data Collector</applicationSoftware>
					<instrumentControlSoftware version="7.8b 20160531">EMPYREAN</instrumentControlSoftware>
					<instrumentID>0000000011180024</instrumentID>
				</source>
			</header>
			<dataPoints>
				<positions axis="2Theta" unit="deg">
					<startPosition>0.0955</startPosition>
					<endPosition>13.9975</endPosition>
				</positions>
				<positions axis="Omega" unit="deg">
					<startPosition>0.04775</startPosition>
					<endPosition>6.99875</endPosition>
				</positions>
				<positions axis="Phi" unit="deg">
					<commonPosition>0.00</commonPosition>
				</positions>
				<positions axis="Chi" unit="deg">
					<commonPosition>-0.23</commonPosition>
				</positions>
				<positions axis="Z" unit="mm">
					<commonPosition>7.116</commonPosition>
				</positions>
				<commonCountingTime unit="seconds">0.176</commonCountingTime>
				<intensities unit="counts">207119 208044 214105 220256 228608 237076 247308 259038 266864 273896 277924 284690 292091 301268 312545 325087 338682 350030 357114 361190 368673 379127 388954 403375 416680 428061 436742 439336 446256 455392 467881 482960 501175 516299 529718 536059 542979 547830 555971 567766 581125 596858 609239 618419 624988 630656 638018 648952 662464 678225 697196 710726 718474 722371 728762 736941 746281 760240 773713 789783 796575 800067 803968 810503 818176 829850 848779 863812 877523 883577 887024 888486 895020 905083 917508 929985 941476 946995 952305 953519 957974 964337 973958 990197 1001049 1014285 1019455 1018224 1018642 1020115 1026651 1033192 1041406 1046443 1051763 1049056 1049970 1052066 1052603 1057283 1063374 1070287 1074961 1074386 1072370 1070484 1067703 1067062 1064515 1065606 1061820 1055296 1045907 1030809 1010275 982322 952748 926628 899138 875234 855992 836414 823997 815963 811861 807949 809208 807257 803456 795242 785695 776589 767841 761838 756291 753385 747338 736454 721848 707492 692138 677229 662343 646420 628939 609499 586672 561178 535372 511689 486332 462718 441800 419067 396111 376089 353045 333441 314798 298914 283982 270178 255995 242690 230801 217125 206294 196314 187644 181429 175269 168918 162687 157525 151954 145278 138856 133392 127223 122229 115952 111357 107219 103767 100810 100388 97762 96280 94800 92058 89184 86060 82203 78849 74730 71184 67725 64746 63197 61084 59912 59411 58844 59146 58859 58917 57817 57275 55806 53977 51776 48691 46127 43619 41021 38713 36925 35796 35243 34966 35010 35418 35969 36654 36846 37425 36922 36391 35759 34129 33220 30953 28989 26776 25290 23473 22184 21356 20775 20348 20450 20768 21195 22009 22252 23026 23625 23775 23728 23800 22621 21894 21317 19699 18385 17207 15889 14799 13835 12973 12537 12509 12366 12697 13259 13988 14317 14942 15797 15836 16458 16204 16076 15552 15060 14335 13108 11939 11098 10105 9296 8559 7926 7596 7368 7502 7725 8273 8580 9207 9877 10426 11127 11259 11276 11480 11343 10833 10512 10007 9157 8213 7488 6718 6046 5373 4917 4672 4444 4673 4753 5152 5590 6053 6636 7127 7553 8094 8361 8461 8389 8240 8255 7799 7411 6685 6160 5394 4729 4113 3716 3276 3018 2901 3021 3144 3458 3810 4357 4779 5039 5724 6103 6302 6519 6834 6655 6520 6342 5979 5477 5056 4451 3871 3354 2810 2472 2251 1985 1954 2084 2183 2536 2775 3207 3635 4106 4610 4823 5218 5424 5574 5599 5544 5204 4974 4568 4078 3789 3188 2700 2298 1880 1653 1467 1320 1282 1377 1697 1940 2403 2752 3212 3627 4063 4362 4564 4831 4992 4835 4995 4695 4276 3883 3691 3240 2614 2261 1837 1446 1275 1117 965 1033 1147 1374 1672 1979 2296 2662 3176 3604 3954 4138 4532 4589 4524 4606 4361 4066 3789 3334 2998 2611 2178 1714 1456 1172 870 822 849 854 1103 1414 1701 2147 2455 3105 3442 3951 4127 4482 4748 4805 4855 4657 4447 4069 3803 3295 2940 2462 1914 1628 1227 979 805 785 846 1014 1261 1661 2161 2714 3294 3951 4470 4879 5263 5821 6103 6248 6091 6010 5720 5300 4873 4368 3715 3061 2498 1991 1498 1212 940 876 982 1291 1715 2239 3070 3794 4845 5670 6648 7619 8440 9065 9666 9962 9993 10205 9963 9521 8762 8150 7174 6238 5343 4362 3327 2718 2195 1898 1825 2120 2795 3755 4917 6270 7778 9671 11431 13451 15159 16871 18455 19492 19914 20667 20375 19831 19018 17424 15821 14309 12300 10246 8483 7072 6277 6066 6857 8755 12083 16797 23076 30917 40305 51681 64139 77733 91872 107152 122940 138600 154692 170883 185579 199076 213420 225646 235038 245053 253137 259243 264170 266395 268742 267794 267997 265198 259899 254306 247998 240011 230775 220956 209851 199052 186620 173401 159929 145898 132412 119309 105437 93359 80418 69945 58824 49103 40205 32204 25494 19957 15615 12188 9689 7965 6978 6634 6783 7182 8008 8891 9913 10636 11324 11953 12246 12395 12323 12072 11696 10929 10261 9227 7895 7044 6225 5146 4292 3549 2827 2435 2007 1763 1698 1740 1843 2019 2341 2484 2825 3081 3401 3656 3812 3922 3947 3784 3580 3371 3201 2887 2656 2375 2017 1804 1470 1183 1004 829 720 674 646 683 765 818 955 1182 1287 1430 1512 1662 1732 1784 1944 1763 1768 1694 1640 1525 1426 1219 1041 852 761 652 544 477 396 375 353 358 391 475 551 605 705 787 851 983 983 979 1022 1038 966 975 917 872 782 718 621 581 472 402 353 280 258 230 216 218 259 281 348 353 450 465 560 585 643 634 619 642 634 590 575 549 555 445 402 349 293 253 214 184 166 148 121 130 150 198 202 239 291 319 329 371 409 395 405 455 448 406 416 374 396 321 301 267 220 162 155 131 117 89 96 83 102 109 137 140 159 185 227 270 274 311 337 297 341 281 295 302 262 236 222 183 141 132 129 95 88 72 81 52 65 91 86 85 134 149 185 189 199 232 226 243 225 215 223 204 212 203 177 151 143 109 61 67 68 48 43 43 48 48 61 60 61 99 125 117 157 167 166 161 172 161 165 164 164 143 122 113 108 82 78 70 61 38 34 25 36 40 37 39 47 70 95 92 98 125 139 132 133 157 145 149 163 138 123 118 96 105 78 63 48 52 32 31 17 25 34 37 43 60 60 66 91 79 103 116 120 137 129 149 121 110 122 107 89 69 55 54 57 38 31 27 37 18 8 21 29 50 41 55 47 80 72 103 87 126 112 132 144 96 130 95 94 81 71 62 49 52 25 24 21 21 13 13 24 25 33 54 45 68 59 81 81 112 94 111 127 88 106 118 117 85 76 69 53 50 33 34 28 19 13 11 18 27 29 21 27 43 54 55 85 61 78 101 113 112 96 102 101 76 94 70 68 68 51 45 34 21 21 25 24 23 13 32 30 46 38 59 65 61 89 91 103 122 122 109 128 113 120 90 85 66 71 63 52 48 35 21 27 16 28 32 43 46 50 48 67 84 85 101 122 115 139 137 130 121 122 121 119 119 102 83 97 74 53 50 36 38 27 36 44 40 51 67 83 103 99 108 140 145 182 218 222 208 213 205 230 219 196 180 194 164 140 112 101 72 80 57 62 41 68 71 76 100 103 127 172 196 220 222 261 278 292 343 338 343 315 355 286 301 253 238 217 186 161 144 115 88 69 110 127 164 223 313 421 477 621 768 970 1140 1297 1456 1690 1838 2100 2365 2525 2595 2923 3066 3270 3226 3532 3565 3623 3498 3549 3590 3472 3300 3249 3201 3045 2850 2692 2410 2241 2217 1945 1757 1468 1373 1162 1027 843 706 608 480 372 304 221 179 120 87 90 61 64 52 56 60 91 90 107 115 114 127 147 124 117 124 122 117 103 104 78 62 73 42 45 32 22 28 14 15 10 16 18 18 15 30 31 30 40 37 29 27 46 43 48 45 50 33 33 28 22 19 14 23 6 15 6 6 8 5 1 7 9 16 6 11 21 12 18 13 14 13 14 18 15 21 17 17 14 9 14 15 7 9 4 8 3 5 3 5 10 9 3 10 7 6 7 6 7 9 12 9 11 9 12 11 11 6 8 4 7 4 1 3 3 3 5 2 3 2 1 1 9 4 4 3 3 4 8 8 7 9 10 10 6 7 5 4 7 3 5 0 3 3 3 1 0 1 2 0 2 4 3 4 3 2 7 10 6 5 6 7 8 3 4 4 6 5 5 5 1 2 2 1 2 0 3 1 1 1 3 2 1 4 4 4 5 4 1 5 3 5 5 1 2 3 2 3 1 1 1 2 2 2 2 1 1 1 0 0 3 3 2 4 2 4 5 2 3 2 6 1 4 4 3 1 1 1 2 2 1 1 0 1 1 2 2 4 4 4 2 3 2 1 4 1 1 0 4 2 1 1 4 3 1 1 1 0 2 0 1 2 0 1 3 1 1 2 2 1 0 4 2 2 4 2 2 2 3 3 1 1 0 4 1 1 1 0 1 1 1 0 0 1 0 3 2 2 4 1 1 1 0 0 0 0 1 0 2 0 3 0 3 0 4 0 0 2 0 0 1 3 0 1 1 1 1 2 1 1 1 3 5 2 0 0 0 4 0 4 3 3 1 1 0 2 0 3 1 0 2 0 2 1 3 1 1 0 2 3 2 1 1 0 3 2 0 1 1 2 1 0 0 0 1 2 2 0 0 0 0 0 1 1 0 0 0 1 0 0 2 0 1 3 0 6 2 0 0 1 3 2 3 2 0 1 2 0 1 0 4 2 1 0 0 2 0 4 1 1 5 2 1 4 5 1 0 1 1 1 1 0 2 1 1 0 0 1 0 1 0 1 2 2 3 2 0 1 0 0 0 1 0 2 2 2 1 2 2 1 0 0 0 0 0 3 1 0 0 3 1 0 1 3 2 2 0 0 5 3 2 7 3 6 1 4 4 1 1 2 0 2 1 3 0 2 3 1 1 2 3 1 4 0 1 4 4 2 4 4 3 2 3 6 4 6 2 1 5 4 3 6 2 0 1 2 1 3 2 3 3 6 6 5 7 17 16 22 26 30 36 40 35 42 42 55 77 69 57 76 74 81 69 83 86 87 90 78 89 99 91 78 77 78 62 74 60 47 47 52 39 37 31 33 26 20 17 19 20 9 9 9 10 5 5 3 2 7 5 1 1 2 1 2 3 4 5 4 4 6 2 1 5 1 4 8 5 3 0 2 2 2 0 1 1 1 2 1 3 2 0 0 4 3 1 3 4 0 2 0 0 2 1 2 2 0 4 2 1 0 2 0 0 0 1 0 1 0 0 2 0 3 2 2 0 0 1 1 1 4 0 0 1 2 0 2 1 0 0 0 0 0 0 2 0 0 0 1 1 1 1 0 1 3 1 4 2 1 1 1 1 0 1 1 0 1 0 0 0 0 0 2 0 1 0 0 0 1 2 0 2 2 0 1 0 0 1 0 0 1 0 0 2 0 3 2 0 1 0 3 0 0 0 0 0 1 1 1 0 2 1 1 1 1 0 2 1 1 2 1 1 0 0 0 0 1 0 0 1 0 1 0 0 1 0 0 0 2 1 1 0 0 0 0 0 0 2 0 0 1 1 1 1 1 0 0 0 0 0 0 0 0 2 0 0 0 1 0 0 1 0 2 0 1 1 0 0 0 0 0 1 1 0 0 2 1 3 0 1 0 0 0 1 0 0 0 0 0 0 3 0 1 0 1 1 0 1 0 0 0 0 0 0 0 3 2 1 0 2 1 1 1 0 0 3 1 0 0 1 2 0 2 5 0 0 0 0 0 0 1 0 0 0 0 0 2 1 1 0 0 1 2 3 0 0 0 0 2 0 1 0 1 2 0 0 1 0 1 0 0 3 1 2 1 1 0 1 1 1 1 1 1 0 3 0 1 1 0 0 1 0 1 1 0 0 4 1 1 1 2 1 1 1 1 0 1 1 1 0 3 1 0 1 1 1 0 1 1 0 2 2 0 2 2 6 0 0 2 1 2 2 1 0 1 0 0 1 0 0 0 1 0 1 1 1 2 0 0 1 0 1 0 0 0 0 0 0 0 2 1 1 1 0 0 0 3 0 1 2 1 0 0 1 1 1 0 1 0 1 1 1 0 0 3 1 2 3 1 0 0 2 1 2 1 0 0 1 1 2 0 1 1 1 2 2 1 1 3 0 1 1 2 0 2 0 2 1 1 2 3 1 3 0 1 1 0 2 1 0 0 1 4 1 1 0 1 2 0 2 2 0 3 2 2 0 1 1 3 3 1 0 1 2 1 0 0 0 1 2 3 1 2 2 0 2 1 5 0 5 1 4 1 0 2 2 3 3 2 0 5 1 1 1 2 5 2 2 1 0 1 1 2 1 2 5 2 5 2 7 8 8 9 9 16 12 7 7 10 10 15 11 10 14 12 8 8 6 12 11 4 11 8 4 10 2 7 10 1 2 5 0 3 2 1 1 2 3 0 1 1 0 1 0 0 0 1 1 3 0 1 0 0 0 0 0 0 2 1 1 1 0 1 0 0 0 0 0 0 0 0 0 0 1 0 1 0 0 0 1 1 2 1 3 0 1 2 1 0 2 1 0 1 0 1 0 0 0 1 1 0 0 1 1 0 1 0 0 1 0 1 1 2 0 1 1 2 0 0 0 0 1 0 0 0 1 0 0 0 1 0 0 0 1 1 0 0 0 1 1 0 0 1 0 0 1 1 0 0 0 0 0 0 2 0 0 1 0 1 0 0 1 2 1 0 1 0 0 1 0 0 1 0 1 1 0 0 0 0 1 1 0 0 0 1 1 0 0 0 0 0 0 0 1 0 0 0 0 0 0 0 0 0 1 0 0 0 3 1 1 0 0 0 0 0 1 0 1 0 1 0 1 1 0 0 0 1 1 1 0 1 0 0 0 0 0 0 0 0 0 0 0 0 1 0 0 0 0 0 0 0 0 0 1 1 0 0 0 1 1 0 0 0 0 0 0 0 0 0 1 3 0 0 0 0 0 0 0 1 1 0 0 0 0 0 0 1 0 0 0 0 0 0 1 1 0 0 3 2 1 1 0 1 0 0 0 1 0 0 0 0 0 0 0 0 0 0 1 0 1 0 0 0 1 1 0 1 0 0 0 0 1 2 1 0 0 0 0 0 0 0 0 0 0 0 1 0 0 1 0 0 0 0 0 0 1 0 1 0 0 0 0 1 0 0 0 0 0 0 0 1 3 1 0 0 0 0 0 0 0 0 1 0 0 0 0 0 0 1 0 0 1 0 0 1 0 0 1 0 0 0 0 0 0 0 0 0 0 0 0 1 0 0 0 0 0 0 0 0 1 0 0 0 0 0 0 1 1 0 0 0 0 1 0 0 0 0 1 0 0 0 0 0 0 0 0 0 1 0 0 0 0 1 0 0 0 0 0 1 1 0 1 0 2 1 0 1 1 2 0 1 0 0 1 0 0 0 0 2 1 1 0 0 0 1 1 2 0 0 0 0 0 0 0 0 0 0 1 0 0 0 0 1 0 0 0 1 0 0 0 0 0 0 0 1 1 0 1 0 0 0 1 0 3 0 0 0 1 1 0 1 0 0 0 0 0 1 0 0 0 0 0 0 0 0 0 0 0 0 1 0 1 0 0 1 0 0 0 0 0 0 0 0 0 0 0 0 1 0 0 0 0 0 2 1 0 0 0 1 0 0 0 1 1 0 0 0 0 1 1 1 0 0 1 0 0 3 0 2 0 0 0 0 0 0 0 1 0 0 0 1 2 0 0 0 1 0 0 0 0 0 0 0 0 1 0 0 1 0 0 0 1 1 0 0 0 0 0 0 0 0 1 0 1 0 0 0 0 0 0 0 0 0 0 0 1 0 1 0 0 0 0 0 0 0 2 0 0 0 0 0 1 0 0 0 0 0 0 0 2 1 0 0 0 0 0 0 0 0 1 2 0 0 0 0 0 0 1 2 1 1 0 0 0 0 0 0 0 0 0 0 0 0 1 0 0 1 1 0 0 1 0 0 0 0 0 0 1 0 1 0 0 0 0 0 0 1 0 0 0 0 0 0 0 0 0 0 0 0 0 0 0 0 0 0 0 0 0 2 1 0 1 0 0 1 0 0 1 0 1 0 0 0 0 0 0 0 1 0 1 1 1 0 0 0 0 0 1 0 0 0 0 0 0 3 0 1 0 0 1 0 0 1 0 0 0 1 0 0 0 2 0 0 1 1 0 0 0 0 0 1 1 0 1 0 0 0 0 0 0 0 0 0 1 3 0 0 0 0 0 0 0 1 1 0 1 0 0 0 0 1 0 0 0 0 1 0 0 0 1 0 0 1 0 0 0 0 0 1 0 0 0 0 0 0 0 1 0 0 0 1 0 0 0 0 0 0 0 0 0 0 1 0 0 0 0 0 0 1 2 1 0 0 0 0 0 0 1 1 0 0 0 1 0 0 0 0 0 1 0 0 0 0 0 0 2 0 1 2 0 0 0 1 0 0 0 0 0 0 1 0 0 0 0 0 0 0 0 0 0 0 0 0 0 1 0 1 1 0 0 0 0 0 0 0 0 0 0 0 1 0 1 1 1 0 0 0 0 0 0 0 3 0 0 0 0 1 1 0 0 0 0 0 0 0 1 1 0 0 0 0 0 0 0 0 0 1 0 0 0 0 0 0 0 0 0 0 2 0 1 0 0 0 1 1 0 0 0 0 1 0 0 0 0 0 0 0 0 0 0 0 0 0 0 0 0 1 0 0 0 1 0 0 1 0 0 0 0 0 1 1 0 0 0 0 1 0 0 0 0 0 0 0 0 0 0 0 0 0 1 0 0 0 0 1 0 0 0 0 0 0 0 0 0 0 0 0 0 0 1 1 0 0 0 0 0 0 0 1 0 0 0 2 0 0 0 1 0 1 2 0 0 0 0 0 0 0 0 0 0 0 0 1 0 0 0 0 1 0 0 0 0 1 0 0 0 1 0 0 0 0 0 0 0 0 0 0 0 1 3 1 0 0 0 0 1 1 1 0 1 0 0 0 0 0 0 1 0 0 0 1 0 0 0 0 0 0 0 0 0 1 1 2 0 1 1 0 0 0 0 0 1 0 0 0 2 2 0 0 0 0 0 1 0 0 0 0 0 0 0 0 0 0 0 0 0 1 0 0 0 0 0 0 1 0 0 1 2 0 0 0 0 2 0 0 1 0 1 0 0 2 0 0 0 0 0 0 1 0 0 0 0 0 1 0 0 0 0 1 0 0 1 0 0 0 0 2 0 0 0 0 0 0 0 1 0 0 0 0 0 0 0 1 0 0 1 0 0 0 1 1 0 0 1 0 0 0 0 0 0 0 0 0 0 0 0 1 0 0 0 0 0 0 0 0 1 0 1 0 0 0 0 0 1 0 0 0 0 0 0 1 0 0 0 1 1 1 0 1 1 0 0 0 0 0 1 0 0 0 0 0 0 0 0 0 1 0 1 0 0 0 0 1 0 0 0 1 0 1 0 0 0 0 0 1 1 1 0 0 0 0 0 0 1 0 0 1 0 0 0 0 0 0 1 1 0 0 0 0 2 0 3 0 0 0 0 1 2 0 1 0 0 0 0 0 1 0 0 0 0 0 0 1 0 0 0 0 0 1 0 0 0 0 1 0 0 0 0 0 1 0 0 0 1 0 0 0 0 0 0 1 0 0 0 0 0 1 0 0 0 2 0 0 0 0 0 0 1 0 0 1 0 2 0 1 0 0 0 0 0 0 0 0 0 0 1 0 0 0 0 0 0 0 0 0 1 0 0 0 0 0 0 2 1 0 1 0 1 0 0 1 0 0 1 0 0 0 0 0 1 0 0 0 0 0 0 0 0 0 0 1 0 1 0 1 0 0 0 0 1 1 0 0 0 0 0 0 0 0 1 0 0 0 0 0 0 1 0 0 0 0 0 0 0 0 0 0 0 0 0 0 0 0 1 0 0 2 0 0 0 0 0 0 0 0 0 0 0 0 0 1 0 0 1 3 1 1 0 0 0 0 0 0 0 0 0 1 0 1 0 0 0 0 1 0 0 1 1 1 1 0 1 2 0 0 0 0 0 0 0 0 0 0 0 0 0 1 0 1 0 0 0 1 0 0 0 0 0 0 1 0 1 0 0 1 1 0 1 0 1 0 0 0 0 0 0 0 1 2 0 0 0 0 0 0 0 1 0 0 0 1 0 0 0 0 0 0 0 0 0 0 0 0 0 0 0 0 0 0 0 0 0 1 0 0 0 0 0 1 0 0 0 0 0 1 0 0 0 0 0 0 0 0 0 0 0 0 0 0 0 0 0 1 0 0 1 1 0 0 1 0 0 1 0 0 0 0 0 0 0 1 0 0 0 0 1 0 0 0 0 0 1 0 0 2 0 0 1 0 0 0 1 0 0 0 0 0 1 1 1 0 0 1 0 0 0 0 0 0 0 0 0 0 0 0 0 0 0 0 0 2 0 0 0 0 3 0 0 1 1 0 1 0 0 0 0 0 0 0 0 1 1 0 1 0 0 0 0 0 0 0 0 1 0 0 0 1 0 0 0 0 0 0 0 0 0 0 0 0 0 0 1 0 0 0 0 0 0 0 0 1 0 0 0 0 0 0 0 0 0 0 0 3 0 0 0 0 0 0 0 0 0 0 0 0 0 1 0 0 0 0 0 0 0 0 1 0 1 0 0 0 0 0 1 0 0 0 0 0 1 0 0 0 0 0 0 2 1 0 0 0 0 0 0 1 0 0 0 1 0 0 0 0 0 0 0 0 0 0 0 0 0 0 0 1 0 0 0 0 0 0 1 0 2 0 0 0 1 0 0 0 0 1 0 1 0 1 1 0 1 0 0 0 1 0 0 0 0 0 1 0 0 0 0 0 1 0 2 0 0 0 0 1 0 3 0 0 0 0 1 0 2 2 0 0 0 0 0 0 1 0 1 0 1 0 0 0 0 0 0 0 0 0 0 1 0 1 0 0 1 2 1 0 0 1 0 1 0 0 0 0 0 0 1 0 0 0 0 0 0 0 0 0 0 1 0 0 0 0 0 0 0 0 0 0 0 1 0 0 0 0 0 0 0 0 0 0 0 0 0 0 1 0 0 0 0 0 0 0 0 0 0 0 0 0 0 0 0 0 0 0 0 0 0 0 0 0 0 0 0 0 0 0 0 0 0 0 0 0 0 0 0 0 0 0 0 0 0 0 0 0 0 0 0 0 1 0 0 0 0 0 2 1 0 0 0 0 0 0 0 0 0 1 1 0 0 0 0 0 0 1 0 0 0 0 0 0 0 1 0 1 0 0 0 0 0 0 1 0 0 0 0 1 0 0 1 0 0 1 0 0 0 0 0 0 0 0 1 0 0 0 0 0 1 1 0 2 0 0 0 1 0 1 0 0 1 0 0 1 0 0 1 1 0 0 0 1 0 0 1 0 0 0 0 0 0 0 0 0 0 0 0 0 1 0 0 0 0 0 0 0 0 0 0 0 0 0 0 0 2 0 1 0 0 1 0 0 0 0 0 0 0 1 0 1 0 0 0 1 0 0 0 0 0 0 1 0 0 0 0 0 0 0 1 0 0 0 0 0 0 0 0 0 0 0 0 1 0 1 0 2 0 0 0</intensities>
			</dataPoints>
		</scan>
	</xrdMeasurement>
</xrdMeasurements>
