<?xml version="1.0" encoding="UTF-8"?>
<xrdMeasurements xmlns="http://www.xrdml.com/XRDMeasurement/1.6" xmlns:xsi="http://www.w3.org/2001/XMLSchema-instance" xsi:schemaLocation="http://www.xrdml.com/XRDMeasurement/1.6 http://www.xrdml.com/XRDMeasurement/1.6/XRDMeasurement.xsd" status="Completed">
	<comment>
		<entry>Configuration=Chi-Phi-z stage, Owner=User-1, Creation date=2016/4/21 11:38:47</entry>
		<entry>Goniometer=Theta/Theta; Minimum step size 2Theta:0.0001; Minimum step size Omega:0.0001</entry>
		<entry>Sample stage=Chi-Phi-z stage 240 mm (reflection); Minimum step size Phi:0.01; Minimum step size Chi:0.01; Minimum step size Z:0.001</entry>
		<entry>Diffractometer system=EMPYREAN</entry>
		<entry>Measurement program=C:\PANalytical\Data Collector\Programs\Tony Zhu\XRR__3.xrdmp, Identifier={9723AA1E-2EF3-4A82-ACB9-36A98B06D8BD}</entry>
		<entry>Batch program=C:\PANalytical\Data Collector\Programs\Tony Zhu\Batch_XRR__3.xrdmp, Identifier={ABFB556F-7A06-4ADD-9E24-E26294CE63DF}</entry>
	</comment>
	<sample type="To be analyzed">
		<id>W-B4C(260201B)</id>
		<name></name>
		<preparedBy>User-1</preparedBy>
	</sample>
	<xrdMeasurement measurementType="Scan" status="Completed" sampleMode="Reflection">
		<comment>
			<entry>PHD Lower Level = 4.02 (keV), PHD Upper Level = 16.08 (keV)</entry>
		</comment>
		<usedWavelength intended="K-Alpha">
			<kAlpha1 unit="Angstrom">1.5405980</kAlpha1>
			<kAlpha2 unit="Angstrom">1.5444260</kAlpha2>
			<kBeta unit="Angstrom">1.3922500</kBeta>
			<ratioKAlpha2KAlpha1>0.5000</ratioKAlpha2KAlpha1>
		</usedWavelength>
		<incidentBeamPath>
			<radius unit="mm">240.00</radius>
			<xRayTube id="1010048" name="Empyrean Cu LFF HR (9430 033 7310x) DK417079">
				<tension unit="kV">40.0</tension>
				<current unit="mA">20.0</current>
				<anodeMaterial>Cu</anodeMaterial>
				<focus type="Line">
					<length unit="mm">12.0</length>
					<width unit="mm">0.4</width>
					<takeOffAngle unit="deg">4.4</takeOffAngle>
				</focus>
			</xRayTube>
			<xRayMirror id="27020001" name="Inc. Parallel beam X-ray mirror for Cu radiation" hybrid="false">
				<crystal type="Graded" shape="Parabolic">W/Si</crystal>
				<acceptanceAngle unit="deg">0.800</acceptanceAngle>
				<length unit="mm">55.3</length>
			</xRayMirror>
			<sollerSlit id="21010002" name="Soller slits 0.04 rad.">
				<opening unit="rad">0.0400</opening>
			</sollerSlit>
			<divergenceSlit id="22010011" name="Fixed slit 1/32°" xsi:type="fixedDivergenceSlitType">
				<distanceToSample unit="mm">140.00</distanceToSample>
				<height unit="mm">0.05</height>
			</divergenceSlit>
		</incidentBeamPath>
		<sampleOffset>
			<position axis="2Theta" unit="deg">0.0025</position>
			<position axis="Omega" unit="deg">-0.0521</position>
		</sampleOffset>
		<diffractedBeamPath>
			<radius unit="mm">240.00</radius>
			<sollerSlit id="21010002" name="Soller slits 0.04 rad.">
				<opening unit="rad">0.0400</opening>
			</sollerSlit>
			<detector id="7010020" name="PIXcel3D-Medipix3 1x1 detector" xsi:type="areaDetectorType">
				<phd>
					<lowerLevel unit="%">25.0</lowerLevel>
					<upperLevel unit="%">100.0</upperLevel>
				</phd>
				<mode>Receiving slit</mode>
				<activeChannelsEquatorial>1</activeChannelsEquatorial>
				<activeChannelsAxial>255</activeChannelsAxial>
				<pitchEquatorial unit="mm">0.05500</pitchEquatorial>
				<pitchAxial unit="mm">0.05500</pitchAxial>
				<readOutPeriod unit="seconds">0.050</readOutPeriod>
			</detector>
		</diffractedBeamPath>
		<scan appendNumber="0" mode="Continuous" scanAxis="2Theta-Omega" status="Completed">
			<header>
				<startTimeStamp>2026-02-02T10:30:31+08:00</startTimeStamp>
				<endTimeStamp>2026-02-02T10:41:10+08:00</endTimeStamp>
				<author>
					<name>admin</name>
				</author>
				<source>
					<applicationSoftware version="5.3">Data Collector</applicationSoftware>
					<instrumentControlSoftware version="7.8b 20160531">EMPYREAN</instrumentControlSoftware>
					<instrumentID>0000000011180024</instrumentID>
				</source>
			</header>
			<dataPoints>
				<positions axis="2Theta" unit="deg">
					<startPosition>0.0935</startPosition>
					<endPosition>15.9985</endPosition>
				</positions>
				<positions axis="Omega" unit="deg">
					<startPosition>0.04675</startPosition>
					<endPosition>7.99925</endPosition>
				</positions>
				<positions axis="Phi" unit="deg">
					<commonPosition>0.00</commonPosition>
				</positions>
				<positions axis="Chi" unit="deg">
					<commonPosition>-0.21</commonPosition>
				</positions>
				<positions axis="Z" unit="mm">
					<commonPosition>7.050</commonPosition>
				</positions>
				<commonCountingTime unit="seconds">0.176</commonCountingTime>
				<intensities unit="counts">196796 204541 217123 233169 250167 266212 282117 296319 312276 329980 348604 362630 380880 403064 429063 448969 467701 484840 504862 527591 551928 569364 587652 612793 641139 665433 686062 705930 726484 747684 771635 794353 813315 833927 858501 885323 906796 925077 941527 964969 986600 1004823 1024772 1039384 1061662 1085546 1103668 1119723 1133163 1151210 1167481 1185042 1197535 1209385 1225637 1242785 1257162 1267308 1278497 1289513 1301920 1311124 1321521 1325722 1336390 1349691 1355908 1362390 1367937 1372948 1378040 1384415 1386356 1389430 1391372 1397322 1397997 1400062 1398757 1394855 1394331 1390218 1389376 1383054 1374663 1369771 1364658 1355257 1343388 1330652 1314409 1299030 1282947 1259600 1235969 1215908 1186983 1160669 1126638 1090667 1053641 1016250 972073 925586 874746 820176 765096 706757 638365 569523 504015 442305 385725 337100 296733 263958 238295 218888 201510 187767 176657 168517 161288 154648 150490 144961 140869 136321 132337 127621 125329 123279 120932 118699 115413 112750 110951 111459 110893 106977 102878 100619 100865 100056 99318 96246 91428 88868 87918 87958 88410 87215 83705 78905 76520 75539 76905 78087 76928 72773 67768 64658 64031 65131 66700 66724 62868 58187 54419 52963 53488 55961 56554 55012 50255 45465 42139 42513 44399 46924 47326 44785 39765 35781 32536 33091 35401 37635 38014 35451 31115 26899 24434 24641 26480 28992 29686 28400 24911 21144 18280 17735 19135 21258 23017 22393 19858 16708 13840 12783 13510 15613 17827 18553 17704 15669 12304 10181 9710 10939 13102 14953 15840 15098 13206 10786 8894 8864 10158 12623 15209 16175 15985 14167 11926 9809 9789 11329 13941 16907 18823 18905 16821 14420 11936 11370 13289 16924 20708 23580 23986 22350 18812 16081 14965 17025 21648 27247 31897 33065 31607 27277 23035 21414 22907 28685 35817 42154 44788 42677 37330 31145 27307 28974 35912 46375 55905 62031 60796 54123 45901 40359 40799 50016 64381 77707 86543 86512 78018 67027 60932 66910 85014 111958 137726 152638 152624 138935 123037 119878 141851 187625 246329 297242 324832 329928 340350 390864 509555 689658 885693 1057085 1188523 1272939 1321830 1345241 1352479 1348865 1340715 1322888 1301120 1276136 1252117 1219300 1183451 1137804 1086826 1028211 959422 874347 777418 672017 561285 456237 362067 291212 248512 222534 204538 182899 156374 126610 101357 83868 75849 75952 78460 78942 75573 65810 54512 43602 36763 34933 37191 40573 43250 43086 39748 33602 26760 21762 19503 20061 22543 24742 26014 25042 22183 18471 14732 12795 12240 13484 15402 16858 17151 16419 14107 11799 9417 8505 8980 9836 11512 12277 12465 11395 9698 7924 6595 5929 6605 7535 8621 9397 9174 8345 6845 5790 4929 4662 5117 5990 6867 7232 7259 6370 5235 4316 3531 3446 3865 4641 5260 5380 5400 4698 3955 3221 2706 2684 3124 3687 4237 4307 4212 3682 3137 2560 2042 1992 2306 2778 3257 3396 3183 2835 2407 1908 1628 1642 1853 2356 2624 2820 2823 2352 1987 1513 1284 1269 1519 1863 2117 2299 2204 1978 1593 1267 1095 1039 1244 1512 1858 2044 2057 1777 1529 1259 1034 1046 1158 1460 1742 1937 1922 1772 1556 1274 1086 1062 1082 1376 1656 1887 1927 1787 1534 1300 1038 974 1083 1269 1575 1734 1815 1763 1518 1259 1153 981 1095 1321 1569 1844 1985 1939 1659 1433 1135 1046 1148 1269 1555 1918 1969 1946 1722 1442 1245 1129 1201 1412 1689 2100 2112 2176 1966 1621 1392 1277 1299 1527 1806 2115 2283 2271 2104 1744 1500 1355 1413 1730 2043 2382 2599 2600 2448 2132 1843 1651 1679 1973 2353 2805 3143 3299 3163 2965 2554 2293 2219 2428 2833 3302 3709 3764 3657 3398 2860 2414 2263 2452 2897 3661 4239 4570 4658 4232 3795 3170 2897 3076 3604 4450 5282 5846 6037 5788 5158 4647 4509 5121 6254 7879 9804 10942 11655 11407 10552 9634 9111 10347 12858 16833 21688 26015 28781 29683 29527 29393 33666 44693 65764 99228 144639 201253 263614 324293 380301 424883 457069 472774 469629 450780 417692 370504 316205 258317 201353 151271 107363 73379 50893 36760 29569 25856 24193 23058 20704 17857 14637 11439 9170 7666 7002 6956 6920 6892 6443 5881 4956 4169 3437 3110 3143 3316 3446 3500 3538 3273 2805 2329 1876 1719 1604 1585 1623 1709 1719 1669 1528 1270 1008 946 930 909 1049 1083 996 996 889 782 622 625 568 572 679 718 737 695 660 587 463 444 399 434 454 529 547 518 483 427 372 320 296 338 336 389 418 394 400 332 291 233 264 239 265 306 320 308 250 276 213 215 225 187 205 245 214 231 233 212 204 157 149 148 156 138 180 161 166 151 159 148 145 112 111 114 148 151 135 144 149 105 114 88 113 99 111 107 122 110 120 112 91 88 90 87 106 94 129 112 120 109 107 99 75 90 74 108 118 118 130 98 100 81 76 90 96 92 116 116 106 102 97 100 68 80 86 95 85 104 107 105 96 89 82 74 77 79 83 101 87 109 86 74 79 65 55 92 90 91 85 77 73 64 70 59 67 71 72 85 85 84 84 58 67 73 65 80 83 83 81 85 85 72 72 73 64 65 74 85 79 95 92 67 72 69 67 66 83 77 60 85 108 105 80 69 65 83 81 84 109 103 105 108 102 102 90 90 92 100 108 130 145 127 98 102 96 103 93 124 126 144 155 147 157 141 142 133 152 199 186 251 268 283 306 253 269 251 293 307 390 471 530 609 675 661 703 711 853 1150 1613 2343 3405 4629 6091 7559 9351 10506 11666 12153 12585 12288 11514 10518 9233 7765 6420 4939 3735 2758 1936 1402 1153 859 688 552 516 457 376 321 271 242 200 175 158 153 147 110 116 90 80 84 76 57 62 73 65 70 48 54 42 41 44 27 27 25 32 25 23 19 27 17 16 15 9 7 10 18 12 17 9 8 10 15 9 4 3 3 9 10 6 3 9 9 3 8 8 5 5 5 6 1 4 4 2 4 4 4 7 4 0 3 5 4 5 1 5 2 4 1 1 3 2 4 3 2 3 5 4 1 2 3 5 0 3 4 0 1 4 2 8 1 1 6 3 2 4 4 3 4 6 0 4 7 2 0 4 5 1 3 2 0 4 4 2 2 1 2 4 2 2 3 1 0 1 2 1 1 0 0 2 2 2 0 1 1 0 3 3 2 2 2 2 2 1 1 1 2 2 3 3 3 2 3 0 2 3 3 2 1 2 1 4 1 4 3 4 5 2 1 2 1 4 3 2 2 2 1 2 2 2 1 1 2 2 2 2 2 5 1 1 0 0 6 6 1 1 1 2 3 4 1 2 5 2 5 6 4 4 3 2 5 3 4 6 4 9 6 6 8 5 3 9 1 7 5 3 3 4 5 5 4 5 7 4 7 9 6 5 5 8 5 8 12 12 2 9 8 6 6 13 14 20 12 18 18 16 19 18 26 22 30 24 45 47 58 57 50 66 77 98 161 202 269 384 560 714 835 1089 1238 1376 1429 1475 1550 1570 1446 1315 1221 1075 886 734 658 493 369 290 259 182 126 104 96 82 65 66 49 50 41 47 45 37 35 24 24 26 21 25 28 9 14 19 14 13 12 22 14 13 16 14 8 7 6 7 11 6 4 4 7 9 5 6 8 5 4 5 7 10 3 8 6 6 3 2 4 2 5 5 3 6 7 3 3 8 3 5 2 2 6 6 7 4 4 2 1 6 4 2 2 3 6 4 0 2 1 2 0 1 4 6 4 4 1 2 5 3 4 1 3 1 2 2 2 1 1 1 4 3 3 1 2 0 1 5 4 2 2 5 2 4 2 3 2 2 2 2 1 2 4 2 5 2 2 2 5 2 3 5 1 2 1 4 5 3 3 7 2 1 1 2 1 3 5 6 1 2 0 3 2 2 2 1 1 5 1 4 2 4 2 3 1 0 3 1 3 1 1 3 3 1 2 1 2 2 4 2 2 1 3 0 4 4 1 2 2 4 1 3 6 1 4 2 2 6 2 2 6 3 4 3 4 4 2 1 2 0 4 4 2 5 4 3 1 6 0 1 5 3 3 5 6 5 6 4 4 5 4 7 10 6 4 8 8 3 6 4 7 13 5 10 9 6 10 8 7 12 7 12 9 6 10 12 12 11 14 2 12 13 16 17 14 16 17 22 18 23 23 29 32 33 39 61 51 58 56 80 105 127 155 240 281 388 445 588 727 814 921 965 1041 1037 1078 1011 962 851 814 746 686 624 510 426 346 282 227 191 144 118 102 72 69 62 39 26 44 24 29 24 23 27 17 14 12 16 15 14 11 5 7 14 11 9 11 10 10 4 12 9 5 5 6 4 3 2 3 3 0 2 7 3 4 2 2 3 3 3 2 3 3 4 2 1 2 5 4 1 5 2 2 3 0 0 3 0 0 1 1 2 2 1 1 1 2 4 1 1 4 4 0 1 0 0 2 4 0 3 0 4 2 0 0 2 1 2 0 1 0 0 1 0 4 0 2 2 3 1 0 0 1 3 1 1 0 2 2 0 1 0 1 2 2 0 1 1 1 2 0 2 2 1 1 0 1 1 0 0 0 2 0 3 2 0 0 0 0 0 1 0 1 0 0 0 0 1 0 0 2 0 2 0 0 1 0 0 1 0 1 1 0 0 1 1 0 1 1 1 0 0 1 2 2 0 1 2 0 0 1 1 1 0 0 0 0 1 0 0 0 1 3 0 0 2 0 0 1 1 0 0 2 1 1 1 3 0 0 2 3 2 1 0 2 2 3 2 0 1 0 0 0 1 1 1 1 2 0 0 1 2 0 0 2 1 2 3 0 5 3 1 1 2 0 1 1 1 1 0 1 3 1 1 1 3 2 2 4 2 2 2 3 2 2 4 3 2 5 6 3 1 7 3 5 14 8 9 18 25 25 38 43 53 63 57 61 61 69 59 65 82 68 75 53 51 47 36 43 35 30 28 23 15 14 12 10 9 8 5 4 5 5 3 2 4 5 2 1 1 1 0 1 2 1 2 2 1 0 1 0 1 1 0 0 0 1 0 1 2 0 0 1 0 0 1 1 0 0 1 1 1 2 0 1 0 0 0 0 0 1 1 1 1 0 0 0 2 0 0 0 0 0 0 0 1 0 0 0 0 0 1 0 2 0 0 0 0 0 0 0 0 0 1 0 0 0 0 1 0 0 0 0 1 0 0 1 0 0 0 0 0 0 0 1 0 0 0 0 0 0 0 1 0 0 0 1 0 2 0 0 0 2 0 0 0 0 0 0 0 0 0 0 0 0 0 0 0 0 0 0 0 0 0 0 0 0 0 1 0 0 0 0 0 0 0 0 0 3 0 2 1 0 0 1 1 2 1 0 2 1 0 2 0 0 0 1 0 0 0 0 0 0 0 1 2 0 0 1 0 0 0 0 2 0 1 1 0 0 0 0 1 0 1 0 1 0 0 0 0 0 0 0 0 0 0 0 0 0 0 0 0 1 1 0 0 0 0 0 0 0 0 0 0 0 2 1 0 0 1 0 0 0 0 1 0 0 1 0 0 1 0 0 0 0 0 0 1 1 2 1 1 1 0 0 2 1 0 0 0 3 0 1 1 1 0 0 0 1 1 1 1 1 2 2 3 1 2 3 3 4 1 1 5 4 3 7 3 3 0 2 2 1 2 1 3 0 4 3 1 0 4 2 1 1 1 1 2 0 0 0 0 0 0 2 0 0 1 0 1 0 0 0 0 0 0 0 1 0 0 0 0 0 0 0 0 0 0 1 0 0 0 0 0 0 0 0 1 0 0 0 0 0 0 0 0 1 0 1 0 1 0 0 0 0 2 0 0 0 1 0 0 0 1 0 0 0 1 0 0 0 0 0 1 0 1 0 1 1 0 0 1 0 0 0 0 0 0 0 0 0 0 1 0 0 0 1 0 0 1 0 0 0 0 1 0 0 1 0 3 1 0 1 0 0 1 1 0 1 0 1 0 0 0 1 0 0 0 0 1 0 0 0 1 2 1 1 2 0 0 0 0 1 0 0 0 0 0 1 0 1 0 0 0 0 0 2 1 0 1 0 1 2 0 0 0 0 0 0 0 0 0 1 0 0 0 0 1 1 0 0 0 0 0 0 0 0 0 0 0 2 0 0 0 0 1 0 1 0 0 1 0 1 0 1 0 0 0 0 0 0 0 0 0 0 0 1 1 0 0 0 0 0 0 0 0 0 0 0 0 1 0 0 0 0 1 1 0 0 0 0 0 0 1 0 0 0 0 1 0 0 0 1 1 1 0 0 1 0 1 0 0 1 0 1 0 1 0 0 0 1 0 1 0 1 0 2 3 4 5 5 2 1 6 9 7 3 3 6 14 12 10 3 6 6 5 5 8 10 4 10 4 5 6 3 1 3 2 3 1 1 1 3 1 4 1 0 0 0 0 0 1 2 1 0 0 1 0 1 0 0 1 0 0 2 0 1 0 3 0 1 1 0 1 0 1 0 0 1 0 0 0 1 0 0 0 1 0 0 0 0 1 0 0 0 1 0 0 0 0 1 0 0 0 0 0 0 0 0 0 0 0 0 0 1 0 0 1 0 1 0 0 0 0 0 0 0 1 0 0 0 0 0 0 0 2 0 0 0 0 0 0 0 0 0 0 1 0 1 0 0 1 0 0 0 0 0 0 0 1 0 0 0 0 0 0 0 0 0 0 0 0 0 1 0 0 2 1 0 0 0 0 0 0 3 0 0 0 0 0 0 0 1 0 0 0 0 1 0 0 0 0 1 0 0 0 1 0 0 0 0 0 0 0 0 0 0 0 0 1 0 0 1 0 0 0 0 0 0 0 0 0 0 0 0 1 0 0 0 0 0 0 0 0 0 0 0 1 1 1 0 0 0 0 0 0 0 0 0 0 0 1 0 0 0 0 0 0 0 1 0 1 0 0 0 0 0 0 1 0 0 0 0 0 0 0 1 0 0 1 0 0 0 0 0 1 0 0 1 0 0 2 0 0 0 0 0 0 1 0 2 1 0 0 0 1 0 0 1 1 1 0 0 0 1 1 1 1 0 1 0 0 1 2 2 0 2 1 0 1 0 1 1 0 1 0 0 2 1 1 0 0 1 0 3 0 0 0 0 0 1 0 0 0 0 0 0 0 0 0 0 0 0 0 0 1 0 1 0 0 0 1 0 0 0 0 0 1 0 0 0 1 0 0 1 0 0 1 0 0 0 1 1 0 0 1 0 0 0 1 1 1 1 0 0 0 0 0 0 0 0 1 0 0 1 0 0 0 0 0 0 0 0 1 0 0 0 0 0 1 0 0 1 0 1 0 0 0 0 0 0 1 0 0 1 0 0 1 0 0 0 0 0 0 0 0 1 0 0 0 0 0 0 0 2 0 0 0 0 0 1 0 0 0 0 0 1 0 0 0 0 0 2 1 0 0 0 0 0 0 0 0 0 0 0 0 0 0 1 0 0 0 0 0 1 0 0 0 1 0 0 0 0 0 0 0 0 0 1 0 0 0 0 0 0 0 0 0 0 1 0 0 0 0 1 0 1 0 0 0 0 0 0 0 1 0 0 0 0 0 0 2 1 0 0 0 0 0 0 0 0 0 0 0 0 1 0 0 0 0 0 1 1 0 1 0 1 1 0 0 0 1 0 1 0 0 0 0 0 1 0 0 0 0 1 0 1 0 1 0 0 0 0 2 0 0 1 0 1 0 0 0 0 0 0 0 0 0 0 1 0 0 0 0 1 1 0 0 0 0 0 0 1 0 1 0 0 0 0 2 1 0 0 1 1 2 1 0 1 0 0 0 0 0 1 1 0 2 1 0 0 0 0 0 1 0 1 1 0 2 0 0 0 0 0 0 0 0 0 0 1 0 0 0 2 1 0</intensities>
			</dataPoints>
		</scan>
	</xrdMeasurement>
</xrdMeasurements>
